Size,Average(ms)
0,0
5000,0.4
10000,0.8
15000,1.41
20000,1.79
25000,2.38
30000,3.1
35000,3.11
40000,4.41
45000,5.21
50000,5.75
55000,6.36
60000,7.13
65000,7.64
70000,8.29
75000,8.78
80000,9.44
85000,10.11
90000,10.83
95000,11.63
100000,12.31
